"pressure-monitor-rfile"
"Time Step" "pressure-monitor etc.."
("Time Step" "pressure-monitor" "flow-time")
0 17.24801124229333 0
1 17.24611533799848 5e-06
2 17.24790870042013 1e-05
3 17.25161583266513 1.5e-05
4 17.25556669940913 2e-05
5 17.25898022924494 2.5e-05
6 17.2617323332628 3e-05
7 17.2638384059781 3.5e-05
8 17.26524866974108 4e-05
9 17.26570067114585 4.5e-05
10 17.26459873640197 5e-05
11 17.26095811880179 5.5e-05
12 17.25337055725188 6.000000000000001e-05
13 17.24004873081432 6.500000000000001e-05
14 17.2189978152036 7.000000000000001e-05
15 17.18847810200652 7.500000000000001e-05
16 17.1473893573889 8.000000000000001e-05
17 17.09582036353507 8.500000000000001e-05
18 17.0356389508072 9.000000000000001e-05
19 16.97077754749946 9.500000000000001e-05
20 16.906989194001 0.0001
21 16.85144135716909 0.000105
22 16.81187014555669 0.00011
23 16.79579424897873 0.000115
24 16.80968160649292 0.00012
25 16.85830869986843 0.000125
26 16.94412929692182 0.00013
27 17.06696621286802 0.000135
28 17.22418212591444 0.00014
29 17.41094777997902 0.000145
30 17.62072728345587 0.00015
31 17.8457699398181 0.000155
32 18.07774486184579 0.00016
33 18.30838766900229 0.000165
34 18.53009741142945 0.00017
35 18.73650506902833 0.000175
36 18.92290467340175 0.00018
37 19.08647486961308 0.000185
38 19.22631913589115 0.00019
39 19.34332073247099 0.000195
40 19.43984876911427 0.0002
41 19.51930966530313 0.000205
42 19.58563523839987 0.00021
43 19.64283639339542 0.000215
44 19.69453500560859 0.00022
45 19.74374156220568 0.000225
46 19.79270228786983 0.00023
47 19.84287502860506 0.000235
48 19.89501093747386 0.00024
49 19.94922260341281 0.000245
50 20.00514807026484 0.00025
51 20.06202361171002 0.000255
52 20.11891294202611 0.00026
53 20.17478053807053 0.000265
54 20.22863278987439 0.00027
55 20.27954758883255 0.000275
56 20.32669610204591 0.00028
57 20.36922633602943 0.000285
58 20.4063472597711 0.00029
59 20.43739106733314 0.000295
60 20.46164053399694 0.0003
61 20.47833219451305 0.000305
62 20.48660393346372 0.00031
63 20.48549629540046 0.000315
64 20.47406324903798 0.00032
65 20.451349072686 0.000325
66 20.41638489857602 0.0003300000000000001
67 20.36817527839577 0.000335
68 20.3057878676644 0.00034
69 20.22841965611142 0.000345
70 20.13541324530022 0.0003500000000000001
71 20.02617340129809 0.000355
72 19.90024765877353 0.00036
73 19.75735842451051 0.000365
74 19.59742740894325 0.00037
75 19.42065982454338 0.000375
76 19.22756019136092 0.00038
77 19.01895499762569 0.000385
78 18.79595444709794 0.00039
79 18.55994677538615 0.000395
80 18.31256913260516 0.0004
81 18.05561767444044 0.000405
82 17.79098695001573 0.00041
83 17.52066964013117 0.0004150000000000001
84 17.24670118824083 0.00042
85 16.97110049361607 0.000425
86 16.69578959928557 0.00043
87 16.42255037043272 0.0004350000000000001
88 16.15301784513028 0.00044
89 15.88854368961996 0.000445
90 15.63023891636698 0.00045
91 15.37899777733689 0.0004550000000000001
92 15.13544967000951 0.00046
93 14.89999715744813 0.000465
94 14.67283008904393 0.00047
95 14.45393487784578 0.0004750000000000001
96 14.2431369488286 0.0004800000000000001
97 14.04013722857725 0.000485
98 13.84451175754135 0.0004900000000000001
99 13.65579589538169 0.000495
100 13.47349643263084 0.0005
101 13.29709946495949 0.000505
102 13.12609591393559 0.00051
103 12.95997389881117 0.000515
104 12.79824460684097 0.0005200000000000001
105 12.6404594965515 0.0005250000000000001
106 12.48623633146191 0.0005300000000000001
107 12.33520020026337 0.000535
108 12.18698900743029 0.00054
109 12.04124428191309 0.000545
110 11.89762172961731 0.00055
111 11.75579416206133 0.000555
112 11.61541783677764 0.0005600000000000001
113 11.47612686328171 0.0005650000000000001
114 11.33757027057631 0.0005700000000000001
115 11.19939876188208 0.0005750000000000001
116 11.06126224989047 0.00058
117 10.92283309795834 0.000585
118 10.7837647136757 0.00059
119 10.64369456580975 0.000595
120 10.50223756289031 0.0006000000000000001
121 10.35903018185277 0.0006050000000000001
122 10.21375940001237 0.0006100000000000001
123 10.06609013643234 0.0006150000000000001
124 9.915768985145524 0.00062
125 9.762611374676743 0.000625
126 9.606505142005151 0.00063
127 9.447351789874078 0.000635
128 9.285092819367733 0.0006400000000000001
129 9.119714047546642 0.0006450000000000001
130 8.951252752379322 0.0006500000000000001
131 8.779805747532228 0.0006550000000000001
132 8.605569000491235 0.0006600000000000001
133 8.42880116348921 0.000665
134 8.249843663582073 0.00067
135 8.069116619313228 0.000675
136 7.887102991300032 0.00068
137 7.704361734236995 0.0006850000000000001
138 7.52150895201851 0.0006900000000000001
139 7.339175692847386 0.0006950000000000001
140 7.158033407285834 0.0007000000000000001
141 6.978765407737722 0.000705
142 6.802087403345471 0.00071
143 6.628723931825465 0.000715
144 6.459384538924569 0.00072
145 6.294762118866623 0.0007250000000000001
146 6.135526937046067 0.0007300000000000001
147 5.982306245877552 0.0007350000000000001
148 5.835682228478952 0.0007400000000000001
149 5.696193436430538 0.0007450000000000001
150 5.56431777443287 0.00075
151 5.440477635512835 0.000755
152 5.325057723782789 0.00076
153 5.218379690810197 0.0007650000000000001
154 5.120681678783056 0.0007700000000000001
155 5.032116806033801 0.0007750000000000001
156 4.952791123296551 0.0007800000000000001
157 4.882769688544762 0.0007850000000000001
158 4.822069040367005 0.00079
159 4.770656883212436 0.000795
160 4.728455184344279 0.0008
161 4.695353418136918 0.0008050000000000001
162 4.671197542730748 0.0008100000000000001
163 4.65580167371563 0.0008150000000000001
164 4.648935743342174 0.0008200000000000001
165 4.650337347103169 0.0008250000000000001
166 4.659706654514905 0.0008300000000000001
167 4.676700614109168 0.000835
168 4.700935542230158 0.00084
169 4.731986686652123 0.000845
170 4.76940704123348 0.0008500000000000001
171 4.81272422449292 0.0008550000000000001
172 4.861442001972915 0.0008600000000000001
173 4.915050229236719 0.0008650000000000001
174 4.973023339148518 0.0008700000000000001
175 5.034801117661806 0.000875
176 5.099824269447849 0.00088
177 5.16753488533983 0.000885
178 5.237373078405392 0.0008900000000000001
179 5.308790878820613 0.0008950000000000001
180 5.381247987840502 0.0009000000000000001
181 5.454214390624136 0.0009050000000000001
182 5.527182468113608 0.0009100000000000001
183 5.59968011108375 0.0009150000000000001
184 5.671256678342219 0.00092
185 5.741495270592664 0.000925
186 5.810009596002266 0.0009300000000000001
187 5.876439488550918 0.0009350000000000001
188 5.940460137064837 0.0009400000000000001
189 6.001767900530835 0.0009450000000000001
190 6.060098310890892 0.0009500000000000001
191 6.115233371427244 0.0009550000000000001
192 6.166997206200803 0.0009600000000000001
193 6.215249713857903 0.000965
194 6.25988455533151 0.0009700000000000001
195 6.300824340673978 0.0009750000000000001
196 6.338029580889573 0.0009800000000000002
197 6.371515146079288 0.000985
198 6.401345700014732 0.00099
199 6.427606255913576 0.000995
200 6.45041582374736 0.001
201 6.469924190357257 0.001005
202 6.486307248043957 0.00101
203 6.499752856646778 0.001015
204 6.510453661408162 0.00102
205 6.518634773072964 0.001025
206 6.524524814807017 0.00103
207 6.528355398762725 0.001035
208 6.530370157242388 0.00104
209 6.530821549172963 0.001045
210 6.529968205368628 0.00105
211 6.528061694163572 0.001055
212 6.525331973017129 0.00106
213 6.521986286193436 0.001065
214 6.51822023464254 0.00107
215 6.514211081366899 0.001075
216 6.51013193827195 0.00108
217 6.506122894153837 0.001085
218 6.502299910986039 0.00109
219 6.498769609849935 0.001095
220 6.495610884117409 0.0011
221 6.492864682205579 0.001105
222 6.490553678709573 0.00111
223 6.488684904294838 0.001115
224 6.487242251186323 0.00112
225 6.486174034845886 0.001125
226 6.485392379464312 0.00113
227 6.484789119147546 0.001135
228 6.484247611592844 0.00114
229 6.483636835955624 0.001145
230 6.48281531216797 0.00115
231 6.481626001522302 0.001155
232 6.479895900261789 0.00116
233 6.477441573340714 0.001165
234 6.474066633094113 0.00117
235 6.469561022713981 0.001175
236 6.463718091157294 0.00118
237 6.456342886495111 0.001185
238 6.447245749676345 0.00119
239 6.436240577023019 0.001195
240 6.423147341035516 0.0012
241 6.407793074098781 0.001205
242 6.390013308135743 0.00121
243 6.36965742249902 0.001215
244 6.346595642246784 0.00122
245 6.32072103372033 0.001225
246 6.291938852634901 0.00123
247 6.260161783742836 0.001235
248 6.225315163059828 0.00124
249 6.187347217129033 0.001245
250 6.146231086388972 0.00125
251 6.10195871390022 0.001255
252 6.054542185448019 0.00126
253 6.004000259489433 0.001265
254 5.950372908460342 0.00127
255 5.893729759409874 0.001275
256 5.834163785679986 0.00128
257 5.771777929767268 0.001285
258 5.706695500376638 0.00129
259 5.639065104031595 0.001295
260 5.569054322868397 0.0013
261 5.49684646283293 0.001305
262 5.422641847377627 0.00131
263 5.346658184791274 0.001315
264 5.269126565141071 0.00132
265 5.190286995548046 0.001325
266 5.110389647549406 0.00133
267 5.029690255554741 0.001335
268 4.948442181006349 0.00134
269 4.866888511579488 0.001345
270 4.785263677243333 0.00135
271 4.703803392108516 0.001355
272 4.62275145944914 0.00136
273 4.542344050190494 0.001365
274 4.462805662190262 0.00137
275 4.384353419123808 0.001375
276 4.307192467254184 0.00138
277 4.231515331963418 0.001385
278 4.157498290991594 0.00139
279 4.085305017122139 0.001395
280 4.015091176617609 0.0014
281 3.947002975329264 0.001405
282 3.881181862546561 0.00141
283 3.817764274823157 0.001415
284 3.756878649460366 0.00142
285 3.698638543733409 0.001425
286 3.643138012929475 0.00143
287 3.590467886128506 0.001435
288 3.540709835763635 0.00144
289 3.493925309285001 0.001445
290 3.450159018444363 0.00145
291 3.409435462355421 0.001455
292 3.371752021423054 0.00146
293 3.337091844974497 0.001465
294 3.305427288448653 0.00147
295 3.276714518170402 0.001475
296 3.250887378258765 0.00148
297 3.227856519380436 0.001485
298 3.207508781762632 0.00149
299 3.189714454289378 0.001495
300 3.174332713260952 0.0015
301 3.161211606638294 0.001505
302 3.150193420960496 0.00151
303 3.141114201224757 0.001515
304 3.133802772788641 0.00152
305 3.128088777511888 0.001525
306 3.123801730846263 0.00153
307 3.120770956000135 0.001535
308 3.118823189454504 0.00154
309 3.117787844884924 0.001545
310 3.117498842660037 0.00155
311 3.117800229941083 0.001555
312 3.118550634965449 0.00156
313 3.119626518566025 0.001565
314 3.120917495750438 0.00157
315 3.122327920286288 0.001575
316 3.123780240582169 0.00158
317 3.125207639770377 0.001585
318 3.126559042114058 0.00159
319 3.127790609975552 0.001595
320 3.128870675280168 0.0016
321 3.129772434216255 0.001605
322 3.130479606205643 0.00161
323 3.130987396565737 0.001615
324 3.131301859702777 0.00162
325 3.131441270718971 0.001625
326 3.13142970456066 0.00163
327 3.131295601022077 0.001635
328 3.131064426090761 0.00164
329 3.130767053017881 0.001645
330 3.130433781712826 0.00165
331 3.130095880283607 0.001655
332 3.129782474693251 0.00166
333 3.129524743404386 0.001665
334 3.129355173816992 0.00167
335 3.129312625374815 0.001675
336 3.129436854977928 0.00168
337 3.129769780621797 0.001685
338 3.130359008068854 0.00169
339 3.13125291492163 0.001695
340 3.132506295088604 0.0017
341 3.134161650560679 0.001705
342 3.136256870996354 0.00171
343 3.138829187487803 0.001715
344 3.141917781614701 0.00172
345 3.145553370456256 0.001725
346 3.149768558837887 0.00173
347 3.15459386930037 0.001735
348 3.160050068092083 0.00174
349 3.166143893316505 0.001745
350 3.172870803454341 0.00175
351 3.180215746016191 0.001755
352 3.188153018304094 0.00176
353 3.19664710185181 0.001765
354 3.205651021784341 0.00177
355 3.215108853435553 0.001775
356 3.224955071828099 0.00178
357 3.235113639509447 0.001785
358 3.24550211889095 0.00179
359 3.256030365202526 0.001795
360 3.266599886697746 0.0018
361 3.27710431055731 0.001805
362 3.287430812077471 0.00181
363 3.297464339308101 0.001815
364 3.307083424608102 0.00182
365 3.316162507849508 0.001825
366 3.324575139444465 0.00183
367 3.332196072684489 0.001835
368 3.338907383793981 0.00184
369 3.344592816849972 0.001845
370 3.349142912335882 0.00185
371 3.352454403039994 0.001855
372 3.354435437960985 0.00186
373 3.355003139582577 0.001865
374 3.354080946869602 0.00187
375 3.351599390534768 0.001875
376 3.347494938818286 0.00188
377 3.341713654247613 0.001885
378 3.334207630778523 0.00189
379 3.324935174836389 0.001895
380 3.313865790844932 0.0019
381 3.300976432788333 0.001905
382 3.286251704076685 0.00191
383 3.269688330681484 0.001915
384 3.251291505065836 0.00192
385 3.231073666844658 0.001925
386 3.209054415838326 0.00193
387 3.18526231609383 0.001935
388 3.159730638075598 0.00194
389 3.132498163912442 0.001945
390 3.103609084609997 0.00195
391 3.073117046489142 0.001955
392 3.041083769213148 0.00196
393 3.007575501706155 0.001965
394 2.972665420869586 0.00197
395 2.936432999630594 0.001975
396 2.898964455758397 0.00198
397 2.860352251489519 0.001985
398 2.820696643762223 0.00199
399 2.78010445760024 0.001995
400 2.738684829223589 0.002
401 2.696548487132153 0.002005
402 2.653808286417659 0.00201
403 2.610577845690787 0.002015
404 2.566969138977749 0.00202
405 2.52309418899498 0.002025
406 2.47906263556152 0.00203
407 2.434980325573611 0.002035
408 2.390949706358398 0.00204
409 2.347066815240572 0.002045
410 2.30342070572668 0.00205
411 2.260092612302069 0.002055
412 2.217155582980804 0.00206
413 2.174675358544368 0.002065
414 2.132710554190558 0.00207
415 2.09131186395179 0.002075
416 2.050522955467615 0.00208
417 2.010380324348381 0.002085
418 1.970913527346813 0.00209
419 1.932144223632084 0.002095
420 1.894088631205184 0.0021
421 1.856756861005911 0.002105
422 1.82015491597288 0.00211
423 1.784286324936932 0.002115
424 1.749150398816947 0.00212
425 1.714741325278673 0.002125
426 1.681047829423291 0.00213
427 1.648046067417861 0.002135
428 1.615706000029109 0.00214
429 1.584001030777944 0.002145
430 1.552899598057133 0.00215
431 1.522370875059413 0.002155
432 1.492385096883779 0.00216
433 1.462907560560256 0.002165
434 1.433901748488877 0.00217
435 1.405332068421534 0.002175
436 1.377164142620056 0.00218
437 1.349368217422347 0.002185
438 1.32191820389845 0.00219
439 1.294789329947063 0.002195
440 1.267957339085772 0.0022
441 1.241400090861488 0.002205
442 1.215096637619814 0.00221
443 1.189025729413468 0.002215
444 1.163169029977829 0.00222
445 1.137511078292751 0.002225
446 1.112036698172028 0.00223
447 1.086733301837906 0.002235
448 1.061591967784777 0.00224
449 1.036604526379976 0.002245
450 1.011763568320948 0.00225
451 0.9870659212127743 0.002255
452 0.9625108265542877 0.00226
453 0.9381000013908282 0.002265
454 0.9138397110886496 0.00227
455 0.8897418540540832 0.002275
456 0.8658209696215033 0.00228
457 0.8420956786575556 0.002285
458 0.8185891492006351 0.00229
459 0.7953277971155489 0.002295
460 0.7723418772895795 0.0023
461 0.7496643080212995 0.002305
462 0.7273291044663138 0.00231
463 0.7053717342281968 0.002315
464 0.6838282795715855 0.00232
465 0.6627347563673778 0.002325
466 0.6421269846389697 0.00233
467 0.6220404147827455 0.002335
468 0.6025102900718242 0.00234
469 0.5835692897217354 0.002345
470 0.5652486363234233 0.00235
471 0.5475745019013647 0.002355
472 0.5305683183039771 0.00236
473 0.5142482651291012 0.002365
474 0.4986278255109086 0.00237
475 0.4837202550618481 0.002375
476 0.4695330863951777 0.00238
477 0.456071949588288 0.002385
478 0.4433381444383812 0.00239
479 0.4313318892911393 0.002395
480 0.4200448133725202 0.0024
481 0.4094571715349924 0.002405
482 0.3995437211442656 0.00241
483 0.3902782818763805 0.002415
484 0.3816279122634246 0.00242
485 0.3735546364265194 0.002425
486 0.3660186953495596 0.00243
487 0.3589768412528285 0.002435
488 0.3523814806650681 0.00244
489 0.3461823454449096 0.002445
490 0.3403243798980761 0.00245
491 0.3347502751489394 0.002455
492 0.3293999625027912 0.00246
493 0.3242120057762087 0.002465
494 0.3191254956806631 0.00247
495 0.3140789445783899 0.002475
496 0.309011670031371 0.00248
497 0.3038647280522603 0.002485
498 0.2985792892092018 0.00249
499 0.2930981705302132 0.002495
500 0.2873660580550061 0.0025
501 0.2813292831365254 0.002505
502 0.2749359821841619 0.00251
503 0.2681355523362115 0.002515
504 0.2608814903341715 0.00252
505 0.2531311127011517 0.002525
506 0.2448458231023569 0.00253
507 0.2359912000187072 0.002535
508 0.2265368785160269 0.00254
509 0.2164564502407847 0.002545
510 0.2057280698848903 0.00255
511 0.1943334321662019 0.002555
512 0.1822574100651814 0.00256
513 0.1694880191903735 0.002565
514 0.1560163213804648 0.00257
515 0.1418365419865588 0.002575
516 0.126946320223055 0.00258
517 0.1113466483860795 0.002585
518 0.095041192268409 0.00259
519 0.0780359321868128 0.002595
520 0.06034004222377302 0.0026
521 0.04196558017857728 0.002605
522 0.02292672500604911 0.00261
523 0.003241137852700529 0.002615
524 -0.01707107505338762 0.00262
525 -0.03798689868502143 0.002625
526 -0.05948083970596998 0.00263
527 -0.08152525632028944 0.002635
528 -0.1040908113373434 0.00264
529 -0.1271463330787769 0.002645
530 -0.1506599425405717 0.00265
531 -0.174598592189369 0.002655
532 -0.1989286043739378 0.00266
533 -0.2236175002957421 0.002665
534 -0.2486348491154129 0.00267
535 -0.273951650522137 0.002675
536 -0.29954135473173 0.00268
537 -0.325379500629527 0.002685
538 -0.3514443911812396 0.00269
539 -0.3777176664288221 0.002695
540 -0.4041835830980812 0.0027
541 -0.4308286193204566 0.002705
542 -0.4576425948213365 0.00271
543 -0.4846181912412034 0.002715
544 -0.5117509129015578 0.00272
545 -0.5390398824963957 0.002725
546 -0.5664868484571786 0.00273
547 -0.5940964773848214 0.002735
548 -0.6218768978592568 0.00274
549 -0.6498398917047533 0.002745
550 -0.6780002479421803 0.00275
551 -0.7063756933257699 0.002755
552 -0.7349856727980347 0.00276
553 -0.7638516806242781 0.002765
554 -0.7929977528173848 0.00277
555 -0.8224506091526315 0.002775
556 -0.8522392447467456 0.00278
557 -0.8823943601021702 0.002785
558 -0.9129501132022839 0.00279
559 -0.9439436191477865 0.002795
560 -0.9754140547483303 0.0028
561 -1.007402483817424 0.002805
562 -1.039951814373637 0.00281
563 -1.073105764424882 0.002815
