"pressure-monitor-rfile"
"Time Step" "pressure-monitor etc.."
("Time Step" "pressure-monitor" "flow-time")
0 17.24801124229333 0
1 17.24871970227003 1e-05
2 17.25430001045961 2e-05
3 17.25791987118479 3e-05
4 17.26089387372971 4e-05
5 17.26013239475726 5e-05
6 17.25212867127815 6.000000000000001e-05
7 17.23165930599108 7.000000000000001e-05
8 17.19148762826573 8.000000000000001e-05
9 17.1245211670303 9.000000000000001e-05
10 17.02865085563591 0.0001
11 16.914937531988 0.00011
12 16.8132549736879 0.00012
13 16.77157961515996 0.00013
14 16.84533274819432 0.00014
15 17.07831228304224 0.00015
16 17.4826484833422 0.00016
17 18.02593246559684 0.00017
18 18.63354381487875 0.00018
19 19.20763766800457 0.00019
20 19.6567197306935 0.0002
21 19.92493097525252 0.00021
22 20.01014056204533 0.00022
23 19.96296342086367 0.00023
24 19.866705735074 0.00024
25 19.80690904805857 0.00025
26 19.84161588957657 0.00026
27 19.98309474972525 0.00027
28 20.1990602599964 0.00028
29 20.43086568059022 0.00029
30 20.6195695464153 0.0003
31 20.72987887989337 0.00031
32 20.75752273484262 0.00032
33 20.72124456850795 0.0003300000000000001
34 20.64578211909703 0.00034
35 20.54487699053957 0.0003500000000000001
36 20.41527958983303 0.00036
37 20.23931755798574 0.00037
38 19.99307347619452 0.00038
39 19.65590798733709 0.00039
40 19.21795140157152 0.0004
41 18.68086640134259 0.00041
42 18.05604476560428 0.00042
43 17.36220061007714 0.00043
44 16.62442165815109 0.00044
45 15.87337836978459 0.00045
46 15.14451583892456 0.00046
47 14.47332025954618 0.00047
48 13.8895591926034 0.0004800000000000001
49 13.41168295829359 0.0004900000000000001
50 13.0430965821189 0.0005
51 12.77076574294556 0.00051
52 12.56712948277922 0.0005200000000000001
53 12.39608329790751 0.0005300000000000001
54 12.22192840652615 0.00054
55 12.01785063455371 0.00055
56 11.77231233273071 0.0005600000000000001
57 11.4901068363731 0.0005700000000000001
58 11.18807445817089 0.00058
59 10.88779391020995 0.00059
60 10.60679222076863 0.0006000000000000001
61 10.35285895449295 0.0006100000000000001
62 10.12167647689791 0.00062
63 9.899473475851625 0.00063
64 9.667621624993638 0.0006400000000000001
65 9.408832848810539 0.0006500000000000001
66 9.11137834692201 0.0006600000000000001
67 8.770537006813278 0.00067
68 8.387934877775578 0.00068
69 7.969864149065983 0.0006900000000000001
70 7.525210083029467 0.0007000000000000001
71 7.064006021643586 0.00071
72 6.596450149619006 0.00072
73 6.133325457284784 0.0007300000000000001
